# m-m0     h    T       V     ne        nH        tau  m0=6e-6 
1.160e-7   1737  141000  6.57  5.993e+09  5.441e+09  2.255e-10
1.240e-7   1732  89100   6.57  9.101e+09  8.262e+09  2.263e-10
1.400e-7   1726  50000   6.56  1.568e+10  1.423e+10  2.340e-10
1.550e-7   1722  37000   6.56  2.090e+10  1.900e+10  2.487e-10
1.640e-7   1720  32000   6.55  2.401e+10  2.184e+10  2.616e-10
1.780e-7   1718  28000   6.55  2.723e+10  2.486e+10  2.949e-10
1.940e-7   1715  25500   6.54  2.972e+10  2.727e+10  3.559e-10
3.340e-7   1695  24200   6.52  3.168e+10  2.920e+10  1.246e-09
6.530e-7   1650  23500   6.45  3.378e+10  3.126e+10  3.805e-09
8.520e-7   1624  22500   6.41  3.589e+10  3.343e+10  5.905e-09
8.790e-7   1622  21000   6.40  3.807e+10  3.601e+10  6.471e-09
8.910e-7   1620  18500   6.40  4.186e+10  4.130e+10  7.045e-09
9.230e-7   1618  12300   6.39  5.547e+10  6.360e+10  1.138e-08
9.530e-7   1616  10200   6.38  4.447e+10  8.952e+10  1.252e-08
1.290e-6   1601   9400   6.30  3.871e+10  1.072e+11  1.903e-08
1.761e-6   1585   8400   6.19  2.744e+10  1.356e+11  2.224e-08
2.810e-6   1557   7500   6.14  1.242e+10  1.779e+11  2.411e-08
7.140e-6   1479   6900   5.65  7.689e+09  2.845e+11  2.695e-08
2.362e-5   1335   6620   4.66  8.983e+09  6.769e+11  3.571e-08
4.212e-5   1250   6520   4.15  1.099e+10  1.137e+12  4.462e-08
7.143e-5   1169   6410   3.68  1.318e+10  1.902e+12  5.898e-08
9.200e-5   1130   6340   3.46  1.448e+10  2.460e+12  6.833e-08
1.505e-4   1054   6140   3.04  1.589e+10  4.141e+12  9.408e-08
2.432e-4    984   5870   2.68  1.556e+10  7.013e+12  1.299e-07
3.901e-4    917   5560   2.35  1.457e+10  1.194e+13  1.779e-07
6.230e-4    856   5220   2.07  1.297e+10  2.042e+13  2.421e-07
9.920e-4    799   4875   1.82  1.036e+10  3.503e+13  3.233e-07
1.577e-3    747   4510   1.62  9.287e+09  6.047e+13  4.302e-07
2.504e-3    699   4150   1.46  1.291e+10  1.047e+14  6.437e-07
3.973e-3    655   3895   1.30  1.797e+10  1.778e+14  1.118e-06
6.302e-3    613   3710   1.18  2.172e+10  2.973e+14  2.042e-06
9.992e-3    573   3590   1.07  2.515e+10  4.890e+14  3.720e-06
1.584e-2    535   3520   0.98  2.981e+10  7.933e+14  7.291e-06
2.511e-2    497   3480   0.90  3.683e+10  1.276e+15  1.424e-05
3.980e-2    460   3465   0.84  4.808e+10  2.035e+15  2.858e-05
6.309e-2    423   3460   0.81  6.438e+10  3.234e+15  5.894e-05
1.000e-1    386   3460   0.80  8.753e+10  5.126e+15  1.243e-04
1.585e-1    349   3485   0.80  1.265e+11  8.068e+15  2.739e-04
2.512e-1    312   3535   0.80  1.933e+11  1.261e+16  6.359e-04
3.981e-1    274   3620   0.80  3.173e+11  1.952e+16  1.579e-03
6.310e-1    234   3760   0.80  5.810e+11  2.980e+16  4.319e-03
1.000e+0    192   3960   0.80  1.181e+12  4.487e+16  1.131e-02
1.585e+0    149   4180   0.80  2.392e+12  6.742e+16  3.399e-02
2.512e+0    102   4430   0.82  4.800e+12  1.008e+17  1.072e-01
3.981e+0     53   4700   0.87  9.232e+12  1.505e+17  3.339e-01
6.310e+0      0   5000   0.93  1.717e+13  2.240e+17  1.013e+00
9.120e+0    -44   5240   1.01  2.724e+13  3.085e+17  2.336e+00
1.202e+1    -79   5430   1.05  3.848e+13  3.921e+17  4.547e+00
1.585e+1   -115   5660   1.12  5.625e+13  4.953e+17  8.831e+00
2.089e+1   -152   5960   1.19  9.049e+13  6.191e+17  1.795e+01
