# h(km)  m    tau_5000  T(K)  V(km s-1)  nH(cm-3) ne(cm-3) PT(dyn cm-2) beta rho(g cm-3)
2174 5.862E-06  0.         12300  6.2  3.933E+10  4.087E+10  1.606E-01  0.890  9.216E-14
1937 8.941E-06  8.550E-07  10200  5.1  7.986E+10  6.883E+10  2.450E-01  0.901  1.871E-13
1920 9.277E-06  9.390E-07  9500  4.7  9.180E+10  7.470E+10  2.542E-01  0.907  2.151E-13
1900 9.745E-06  1.050E-06  8700  4.1  1.098E+11  8.348E+10  2.670E-01  0.919  2.573E-13
1865 1.079E-05  1.280E-06  7700  3.4  1.464E+11  9.852E+10  2.957E-01  0.933  3.429E-13
1708 2.191E-05  2.150E-06  6820  2.7  4.918E+11  5.193E+10  6.003E-01  0.930  1.152E-12
1430 8.961E-05  3.980E-06  6630  2.6  2.193E+12  7.970E+10  2.455E+00  0.929  5.139E-12
1143 4.228E-04  1.080E-05  6400  2.6  1.091E+13  1.352E+11  1.158E+01  0.925  2.556E-11
1055 7.606E-04  1.620E-05  5950  2.5  2.125E+13  9.648E+10  2.084E+01  0.925  4.980E-11
 942 1.894E-03  2.070E-05  4700  2.3  6.688E+13  1.699E+10  5.189E+01  0.920  1.567E-10
 781 6.619E-03  3.000E-05  3850  1.5  2.968E+14  2.687E+10  1.813E+02  0.957  6.953E-10
 704 1.438E-02  5.000E-05  3700  1.0  6.872E+14  3.955E+10  3.941E+02  0.980  1.610E-09
 571 5.005E-02  2.000E-04  3650  0.4  2.469E+15  8.425E+10  1.371E+03  0.997  5.785E-09
 319 3.272E-01  3.000E-03  3650  0.2  1.632E+16  2.835E+11  8.966E+03  0.999  3.824E-08
 148 1.557E+00  4.000E-02  3650  0.   8.024E+16  8.041E+11  4.266E+04  1.     1.880E-07
 105 2.597E+00  1.000E-01  3680  0.   1.350E+17  1.229E+12  7.116E+04  1.     3.162E-07
  94 2.957E+00  1.260E-01  3700  0.   1.532E+17  1.409E+12  8.102E+04  1.     3.590E-07
  84 3.351E+00  1.580E-01  3740  0.   1.715E+17  1.650E+12  9.181E+04  1.     4.019E-07
  73 3.813E+00  2.000E-01  3770  0.   1.938E+17  1.902E+12  1.045E+05  1.     4.540E-07
  63 4.313E+00  2.510E-01  3810  0.   2.165E+17  2.222E+12  1.182E+05  1.     5.074E-07
  52 4.875E+00  3.160E-01  3860  0.   2.408E+17  2.637E+12  1.336E+05  1.     5.643E-07
  41 5.502E+00  3.980E-01  3910  0.   2.674E+17  3.113E+12  1.507E+05  1.     6.266E-07
  31 6.188E+00  5.010E-01  3970  0.   2.949E+17  3.761E+12  1.696E+05  1.     6.910E-07
  20 6.956E+00  6.310E-01  4040  0.   3.238E+17  4.424E+12  1.906E+05  1.     7.588E-07
  10 7.785E+00  7.940E-01  4130  0.   3.519E+17  5.709E+12  2.133E+05  1.     8.246E-07
   0 8.645E+00  1.000E+00  4230  0.   3.791E+17  7.425E+12  2.369E+05  1.     8.883E-07
 -10 9.529E+00  1.260E+00  4370  0.   4.015E+17  1.014E+13  2.611E+05  1.     9.408E-07
 -19 1.041E+01  1.580E+00  4530  0.   4.205E+17  1.391E+13  2.852E+05  1.     9.853E-07
 -28 1.135E+01  2.000E+00  4720  0.   4.380E+17  1.925E+13  3.110E+05  1.     1.026E-06
 -37 1.230E+01  2.510E+00  4930  0.   4.530E+17  2.610E+13  3.370E+05  1.     1.061E-06
 -47 1.334E+01  3.160E+00  5160  0.   4.682E+17  3.455E+13  3.654E+05  1.     1.097E-06
 -57 1.449E+01  3.980E+00  5420  0.   4.835E+17  4.512E+13  3.969E+05  1.     1.133E-06
 -68 1.577E+01  5.010E+00  5690  0.   5.008E+17  5.894E+13  4.320E+05  1.     1.173E-06
 -80 1.715E+01  6.310E+00  5980  0.   5.181E+17  8.233E+13  4.700E+05  1.     1.214E-06
 -91 1.853E+01  7.940E+00  6270  0.   5.334E+17  1.239E+14  5.076E+05  1.     1.250E-06
-101 1.979E+01  1.000E+01  6580  0.   5.427E+17  2.011E+14  5.422E+05  1.     1.272E-06
-110 2.088E+01  1.260E+01  6900  0.   5.459E+17  3.343E+14  5.721E+05  1.     1.279E-06
-117 2.180E+01  1.580E+01  7220  0.   5.443E+17  5.468E+14  5.972E+05  1.     1.275E-06
-123 2.261E+01  2.000E+01  7570  0.   5.382E+17  9.070E+14  6.195E+05  1.     1.261E-06
