# h(km)  m    tau_5000  T(K)  V(km s-1)  nH(cm-3) ne(cm-3) PT(dyn cm-2) beta rho(g cm-3)
2099  5.862e-06  0.         12300  6.2  3.937e+10  4.083e+10 1.606e-01  0.890  9.224e-14
1862  8.948e-06  8.550e-07  10200  5.1  8.027e+10  6.842e+10 2.451e-01  0.900  1.881e-13
1845  9.285e-06  9.390e-07  9500  4.7  9.248e+10  7.398e+10 2.544e-01  0.906  2.167e-13
1825  9.759e-06  1.050e-06  8700  4.1  1.111e+11  8.218e+10 2.674e-01  0.918  2.603e-13
1790  1.083e-05  1.280e-06  7700  3.4  1.495e+11  9.562e+10 2.967e-01  0.932  3.503e-13
1626  2.326e-05  2.150e-06  6820  2.7  5.315e+11  4.391e+10 6.372e-01  0.929  1.245e-12
1343  9.543e-05  3.980e-06  6630  2.6  2.350e+12  6.804e+10 2.615e+00  0.929  5.507e-12
1077  4.138e-04  1.080e-05  6400  2.6  1.069e+13  1.093e+11 1.134e+01  0.925  2.506e-11
993  7.222e-04  1.620e-05  5950  2.5  2.019e+13  7.718e+10 1.979e+01  0.925  4.731e-11
883  1.758e-03  2.070e-05  4700  2.3  6.209e+13  1.468e+10 4.817e+01  0.920  1.455e-10
720  6.574e-03  3.000e-05  3600  1.5  3.144e+14  1.839e+10 1.801e+02  0.954  7.366e-10
636  1.636e-02  5.000e-05  3400  1.0  8.500e+14  2.000e+10 4.482e+02  0.978  1.992e-09
493  6.679e-02  2.000e-04  3300  0.4  3.674e+15  3.968e+10 1.830e+03  0.996  8.608e-09
262  4.454e-01  3.000e-03  3300  0.2  2.576e+16  1.664e+11 1.220e+04  0.999  6.037e-08
124  1.971e+00  4.000e-02  3370  0.   1.208e+17  6.139e+11 5.401e+04  1.     2.830e-07
89  3.245e+00  1.000e-01  3400  0.   2.037e+17  9.577e+11 8.892e+04  1.     4.774e-07
80  3.703e+00  1.260e-01  3410  0.   2.337e+17  1.078e+12 1.014e+05  1.     5.476e-07
71  4.214e+00  1.580e-01  3440  0.   2.633e+17  1.242e+12 1.155e+05  1.     6.169e-07
62  4.814e+00  2.000e-01  3470  0.   2.979e+17  1.436e+12 1.319e+05  1.     6.981e-07
53  5.461e+00  2.510e-01  3510  0.   3.322e+17  1.671e+12 1.496e+05  1.     7.784e-07
44  6.198e+00  3.160e-01  3540  0.   3.735e+17  1.920e+12 1.698e+05  1.     8.752e-07
36  7.020e+00  3.980e-01  3590  0.   4.133e+17  2.261e+12 1.923e+05  1.     9.684e-07
27  7.926e+00  5.010e-01  3640  0.   4.561e+17  2.654e+12 2.172e+05  1.     1.069e-06
18  8.923e+00  6.310e-01  3700  0.   4.991e+17  3.153e+12 2.445e+05  1.     1.169e-06
 9  1.000e+01  7.940e-01  3770  0.   5.410e+17  3.801e+12 2.740e+05  1.     1.268e-06
 0  1.116e+01  1.000e+00  3850  0.   5.820e+17  4.655e+12 3.059e+05  1.     1.364e-06
-9  1.238e+01  1.260e+00  3970  0.   6.110e+17  6.084e+12 3.392e+05  1.     1.432e-06
-17  1.357e+01  1.580e+00  4110  0.   6.326e+17  8.264e+12 3.719e+05  1.     1.482e-06
-25  1.482e+01  2.000e+00  4260  0.   6.548e+17  1.132e+13 4.059e+05  1.     1.534e-06
-33  1.601e+01  2.510e+00  4440  0.   6.691e+17  1.594e+13 4.386e+05  1.     1.568e-06
-41  1.724e+01  3.160e+00  4620  0.   6.859e+17  2.183e+13 4.722e+05  1.     1.607e-06
-48  1.850e+01  3.980e+00  4830  0.   6.995e+17  3.030e+13 5.069e+05  1.     1.639e-06
-56  1.983e+01  5.010e+00  5040  0.   7.155e+17  4.065e+13 5.432e+05  1.     1.676e-06
-65  2.126e+01  6.310e+00  5270  0.   7.318e+17  5.333e+13 5.826e+05  1.     1.715e-06
-74  2.286e+01  7.940e+00  5490  0.   7.539e+17  6.714e+13 6.263e+05  1.     1.766e-06
-84  2.466e+01  1.000e+01  5730  0.   7.784e+17  8.538e+13 6.757e+05  1.     1.824e-06
-95  2.665e+01  1.260e+01  5970  0.   8.068e+17  1.116e+14 7.302e+05  1.     1.890e-06
-105  2.870e+01  1.580e+01  6210  0.   8.349e+17  1.527e+14 7.864e+05  1.     1.956e-06
-116  3.083e+01  2.000e+01  6460  0.   8.618e+17  2.208e+14 8.448e+05  1.     2.019e-06
